Wavelength (nm)	P-7, 11327059, Bis(5-mesityldipyrrinato)zinc.ems
470.00	0.0062800
470.50	0.0074400
471.00	0.0096800
471.50	0.0090900
472.00	0.010550
472.50	0.011750
473.00	0.013700
473.50	0.015170
474.00	0.016970
474.50	0.018770
475.00	0.022150
475.50	0.024880
476.00	0.028400
476.50	0.031420
477.00	0.035940
477.50	0.042210
478.00	0.047830
478.50	0.056190
479.00	0.062570
479.50	0.070800
480.00	0.079670
480.50	0.087070
481.00	0.098650
481.50	0.11078
482.00	0.12403
482.50	0.14005
483.00	0.15430
483.50	0.17121
484.00	0.19201
484.50	0.21102
485.00	0.22824
485.50	0.25568
486.00	0.27616
486.50	0.30816
487.00	0.33336
487.50	0.36134
488.00	0.39443
488.50	0.42572
489.00	0.46122
489.50	0.49104
490.00	0.52862
490.50	0.56478
491.00	0.59545
491.50	0.63561
492.00	0.67547
492.50	0.70534
493.00	0.74134
493.50	0.77194
494.00	0.80286
494.50	0.83678
495.00	0.86214
495.50	0.88034
496.00	0.90891
496.50	0.92410
497.00	0.94421
497.50	0.95933
498.00	0.97238
498.50	0.97957
499.00	0.99044
499.50	0.98797
500.00	1.0000
500.50	0.99471
501.00	0.99150
501.50	0.99179
502.00	0.98522
502.50	0.97532
503.00	0.96259
503.50	0.96048
504.00	0.94099
504.50	0.93444
505.00	0.91818
505.50	0.90616
506.00	0.88802
506.50	0.87679
507.00	0.86061
507.50	0.85121
508.00	0.82881
508.50	0.81481
509.00	0.79587
509.50	0.77776
510.00	0.76412
510.50	0.74227
511.00	0.73076
511.50	0.71940
512.00	0.70235
512.50	0.68600
513.00	0.67706
513.50	0.66018
514.00	0.64302
514.50	0.63198
515.00	0.62165
515.50	0.60627
516.00	0.60090
516.50	0.58222
517.00	0.57800
517.50	0.56765
518.00	0.55383
518.50	0.53994
519.00	0.53520
519.50	0.51984
520.00	0.51890
520.50	0.51133
521.00	0.49882
521.50	0.48651
522.00	0.48038
522.50	0.47351
523.00	0.46445
523.50	0.45410
524.00	0.44533
524.50	0.43655
525.00	0.43660
525.50	0.42194
526.00	0.42102
526.50	0.41285
527.00	0.40819
527.50	0.39896
528.00	0.38695
528.50	0.37878
529.00	0.37505
529.50	0.37009
530.00	0.35687
530.50	0.35113
531.00	0.34942
531.50	0.33571
532.00	0.33693
532.50	0.32730
533.00	0.32283
533.50	0.31320
534.00	0.30841
534.50	0.30418
535.00	0.29570
535.50	0.29023
536.00	0.28416
536.50	0.27879
537.00	0.27316
537.50	0.26874
538.00	0.26033
538.50	0.25720
539.00	0.25098
539.50	0.24372
540.00	0.23863
540.50	0.23719
541.00	0.22915
541.50	0.22372
542.00	0.21954
542.50	0.21603
543.00	0.21016
543.50	0.20528
544.00	0.20216
544.50	0.19530
545.00	0.19321
545.50	0.18424
546.00	0.18299
546.50	0.17681
547.00	0.17212
547.50	0.17083
548.00	0.16343
548.50	0.16419
549.00	0.15956
549.50	0.15286
550.00	0.15146
550.50	0.14548
551.00	0.14350
551.50	0.14039
552.00	0.13810
552.50	0.13620
553.00	0.13197
553.50	0.12927
554.00	0.12731
554.50	0.12195
555.00	0.11822
555.50	0.11708
556.00	0.11525
556.50	0.11157
557.00	0.11184
557.50	0.10931
558.00	0.10368
558.50	0.10111
559.00	0.099320
559.50	0.098630
560.00	0.098660
560.50	0.093230
561.00	0.092630
561.50	0.089390
562.00	0.089410
562.50	0.087200
563.00	0.085660
563.50	0.084370
564.00	0.082050
564.50	0.080230
565.00	0.078200
565.50	0.077240
566.00	0.076650
566.50	0.073220
567.00	0.072330
567.50	0.070260
568.00	0.068580
568.50	0.068710
569.00	0.066700
569.50	0.066220
570.00	0.063570
570.50	0.063600
571.00	0.060780
571.50	0.060810
572.00	0.059010
572.50	0.058200
573.00	0.056600
573.50	0.056650
574.00	0.053730
574.50	0.053310
575.00	0.052370
575.50	0.052530
576.00	0.052270
576.50	0.048440
577.00	0.049120
577.50	0.048470
578.00	0.044640
578.50	0.046160
579.00	0.046460
579.50	0.044350
580.00	0.042920
580.50	0.042520
581.00	0.041560
581.50	0.040870
582.00	0.040760
582.50	0.039380
583.00	0.038000
583.50	0.037310
584.00	0.037240
584.50	0.037300
585.00	0.035340
585.50	0.034690
586.00	0.033510
586.50	0.033490
587.00	0.032330
587.50	0.031520
588.00	0.031340
588.50	0.031260
589.00	0.030790
589.50	0.030980
590.00	0.030460
590.50	0.028720
591.00	0.028180
591.50	0.027540
592.00	0.028150
592.50	0.027300
593.00	0.026540
593.50	0.026360
594.00	0.024700
594.50	0.025320
595.00	0.023870
595.50	0.023500
596.00	0.022930
596.50	0.023140
597.00	0.022060
597.50	0.022550
598.00	0.021980
598.50	0.021530
599.00	0.019530
599.50	0.019910
600.00	0.020560
600.50	0.019480
601.00	0.018280
601.50	0.017970
602.00	0.017660
602.50	0.017800
603.00	0.018080
603.50	0.018100
604.00	0.016490
604.50	0.015360
605.00	0.016850
605.50	0.016240
606.00	0.015300
606.50	0.015120
607.00	0.014750
607.50	0.014420
608.00	0.015190
608.50	0.013380
609.00	0.013880
609.50	0.013560
610.00	0.012990
610.50	0.013280
611.00	0.013720
611.50	0.012320
612.00	0.012880
612.50	0.012540
613.00	0.011740
613.50	0.011150
614.00	0.011450
614.50	0.011720
615.00	0.011180
615.50	0.010800
616.00	0.010510
616.50	0.010290
617.00	0.010420
617.50	0.0096700
618.00	0.010250
618.50	0.0092600
619.00	0.010460
619.50	0.0092800
620.00	0.0099200
620.50	0.0090100
621.00	0.0088200
621.50	0.0080300
622.00	0.0088500
622.50	0.0083500
623.00	0.0088600
623.50	0.0085200
624.00	0.0084300
624.50	0.0072100
625.00	0.0079500
625.50	0.0075400
626.00	0.0078900
626.50	0.0079700
627.00	0.0068600
627.50	0.0068100
628.00	0.0064400
628.50	0.0073100
629.00	0.0070600
629.50	0.0063100
630.00	0.0070100
630.50	0.0067600
631.00	0.0067700
631.50	0.0064100
632.00	0.0060800
632.50	0.0059000
633.00	0.0063600
633.50	0.0063700
634.00	0.0062600
634.50	0.0057000
635.00	0.0059900
635.50	0.0060000
636.00	0.0055700
636.50	0.0048200
637.00	0.0053200
637.50	0.0052600
638.00	0.0043100
638.50	0.0045800
639.00	0.0047200
639.50	0.0040100
640.00	0.0054300
640.50	0.0043300
641.00	0.0049800
641.50	0.0053500
642.00	0.0046400
642.50	0.0048900
643.00	0.0047700
643.50	0.0039600
644.00	0.0040700
644.50	0.0039100
645.00	0.0044400
645.50	0.0039600
646.00	0.0033600
646.50	0.0034500
647.00	0.0037800
647.50	0.0032600
648.00	0.0034000
648.50	0.0039800
649.00	0.0030800
649.50	0.0030900
650.00	0.0036500
